time (s),/M0/D (A)
0.000,5.466E-12
37.05E-12,-163.4E-9
65.57E-12,-169.2E-9
118.9E-12,-194.2E-9
225.4E-12,33.55E-9
438.6E-12,29.57E-6
607.5E-12,84.19E-6
760.4E-12,142.3E-6
899.6E-12,197.6E-6
1.000E-9,236.1E-6
1.021E-9,235.9E-6
1.064E-9,233.9E-6
1.100E-9,231.7E-6
1.173E-9,223.5E-6
1.318E-9,176.3E-6
1.431E-9,123.4E-6
1.560E-9,70.14E-6
1.746E-9,24.15E-6
1.891E-9,9.951E-6
2.036E-9,3.914E-6
2.191E-9,1.445E-6
2.402E-9,278.9E-9
2.692E-9,34.04E-9
3.127E-9,-27.84E-9
3.826E-9,22.92E-9
5.224E-9,-22.45E-9
8.020E-9,22.31E-9
11.00E-9,-22.16E-9
11.11E-9,97.27E-9
11.24E-9,-270.8E-9
11.39E-9,2.779E-6
11.52E-9,9.515E-6
11.66E-9,6.258E-6
11.78E-9,1.306E-6
11.89E-9,1.402E-6
12.00E-9,1.417E-6
12.03E-9,1.258E-6
12.07E-9,1.141E-6
12.11E-9,1.058E-6
12.19E-9,822.5E-9
12.30E-9,562.0E-9
12.50E-9,204.6E-9
12.64E-9,115.8E-9
12.78E-9,38.98E-9
12.91E-9,36.03E-9
13.08E-9,-2.050E-9
13.30E-9,14.24E-9
13.58E-9,-11.14E-9
13.98E-9,11.54E-9
14.58E-9,-11.53E-9
15.65E-9,11.54E-9
17.80E-9,-11.53E-9
20.00E-9,11.54E-9
20.09E-9,-169.4E-9
20.22E-9,-41.99E-9
20.46E-9,34.15E-6
20.63E-9,93.41E-6
20.79E-9,152.6E-6
20.89E-9,195.1E-6
21.00E-9,236.1E-6
21.02E-9,235.8E-6
21.06E-9,233.9E-6
21.10E-9,231.5E-6
21.18E-9,222.7E-6
21.32E-9,175.0E-6
21.43E-9,122.0E-6
21.56E-9,69.10E-6
21.76E-9,22.45E-6
21.90E-9,9.281E-6
22.05E-9,3.615E-6
22.20E-9,1.307E-6
22.42E-9,241.0E-9
22.72E-9,22.09E-9
23.16E-9,-21.29E-9
23.90E-9,17.43E-9
25.36E-9,-17.04E-9
28.29E-9,16.94E-9
31.00E-9,-16.80E-9
31.10E-9,110.4E-9
31.24E-9,-281.6E-9
31.39E-9,2.824E-6
31.52E-9,9.557E-6
31.67E-9,6.097E-6
31.79E-9,1.302E-6
31.89E-9,1.400E-6
32.00E-9,1.420E-6
32.03E-9,1.258E-6
32.07E-9,1.141E-6
32.11E-9,1.058E-6
32.19E-9,823.7E-9
32.30E-9,563.1E-9
32.50E-9,206.6E-9
32.64E-9,116.6E-9
32.78E-9,39.49E-9
32.91E-9,36.20E-9
33.08E-9,-1.878E-9
33.30E-9,14.24E-9
33.58E-9,-11.08E-9
33.97E-9,11.48E-9
34.57E-9,-11.48E-9
35.64E-9,11.49E-9
37.77E-9,-11.48E-9
40.00E-9,11.49E-9
40.09E-9,-169.5E-9
40.22E-9,-31.26E-9
40.46E-9,35.15E-6
40.64E-9,94.43E-6
40.79E-9,153.7E-6
40.89E-9,195.6E-6
41.00E-9,236.1E-6
41.02E-9,235.8E-6
41.06E-9,233.9E-6
41.10E-9,231.6E-6
41.17E-9,222.9E-6
41.32E-9,175.3E-6
41.43E-9,122.4E-6
41.56E-9,69.35E-6
41.75E-9,22.88E-6
41.90E-9,9.453E-6
42.04E-9,3.691E-6
42.20E-9,1.338E-6
42.41E-9,250.0E-9
42.71E-9,24.62E-9
43.15E-9,-22.74E-9
43.88E-9,18.69E-9
45.32E-9,-18.30E-9
48.22E-9,18.19E-9
51.00E-9,-18.06E-9
51.10E-9,107.1E-9
51.24E-9,-279.7E-9
51.39E-9,2.808E-6
51.52E-9,9.542E-6
51.66E-9,6.146E-6
51.79E-9,1.303E-6
51.89E-9,1.401E-6
52.00E-9,1.419E-6
52.03E-9,1.258E-6
52.07E-9,1.141E-6
52.11E-9,1.058E-6
52.19E-9,823.3E-9
52.30E-9,562.8E-9
52.50E-9,206.0E-9
52.64E-9,116.3E-9
52.78E-9,39.32E-9
52.91E-9,36.15E-9
53.08E-9,-1.933E-9
53.30E-9,14.24E-9
53.58E-9,-11.10E-9
53.97E-9,11.50E-9
54.57E-9,-11.50E-9
55.64E-9,11.51E-9
57.78E-9,-11.50E-9
60.00E-9,11.51E-9
60.09E-9,-169.5E-9
60.22E-9,-34.73E-9
60.46E-9,34.83E-6
60.63E-9,94.10E-6
60.79E-9,153.4E-6
60.89E-9,195.5E-6
61.00E-9,236.1E-6
61.02E-9,235.8E-6
61.06E-9,233.9E-6
61.10E-9,231.6E-6
61.18E-9,222.8E-6
61.32E-9,175.2E-6
61.43E-9,122.3E-6
61.56E-9,69.27E-6
61.75E-9,22.74E-6
61.90E-9,9.399E-6
62.04E-9,3.667E-6
62.20E-9,1.328E-6
62.41E-9,247.1E-9
62.71E-9,23.81E-9
63.16E-9,-22.28E-9
63.88E-9,18.29E-9
65.34E-9,-17.90E-9
68.24E-9,17.79E-9
71.00E-9,-17.66E-9
71.10E-9,108.1E-9
71.24E-9,-280.4E-9
71.39E-9,2.812E-6
71.52E-9,9.546E-6
71.67E-9,6.132E-6
71.79E-9,1.303E-6
71.89E-9,1.401E-6
72.00E-9,1.419E-6
72.03E-9,1.258E-6
72.07E-9,1.141E-6
72.11E-9,1.058E-6
72.19E-9,823.4E-9
72.30E-9,562.9E-9
72.50E-9,206.2E-9
72.64E-9,116.4E-9
72.78E-9,39.37E-9
72.91E-9,36.16E-9
73.08E-9,-1.917E-9
73.30E-9,14.24E-9
73.58E-9,-11.09E-9
73.97E-9,11.49E-9
74.57E-9,-11.49E-9
75.64E-9,11.50E-9
77.78E-9,-11.49E-9
80.00E-9,11.50E-9
80.09E-9,-169.5E-9
80.22E-9,-33.71E-9
80.46E-9,34.92E-6
80.63E-9,94.20E-6
80.79E-9,153.5E-6
80.89E-9,195.5E-6
81.00E-9,236.1E-6
81.02E-9,235.8E-6
81.06E-9,233.9E-6
81.10E-9,231.6E-6
81.18E-9,222.9E-6
81.32E-9,175.2E-6
81.43E-9,122.3E-6
81.56E-9,69.29E-6
81.75E-9,22.78E-6
81.90E-9,9.415E-6
82.04E-9,3.674E-6
82.20E-9,1.331E-6
82.41E-9,248.0E-9
82.71E-9,24.05E-9
83.16E-9,-22.42E-9
83.88E-9,18.41E-9
85.33E-9,-18.02E-9
88.24E-9,17.91E-9
91.00E-9,-17.77E-9
91.10E-9,107.8E-9
91.24E-9,-280.2E-9
91.39E-9,2.811E-6
91.52E-9,9.545E-6
91.67E-9,6.136E-6
91.79E-9,1.303E-6
91.89E-9,1.401E-6
92.00E-9,1.419E-6
92.03E-9,1.258E-6
92.07E-9,1.141E-6
92.11E-9,1.058E-6
92.19E-9,823.4E-9
92.30E-9,562.8E-9
92.50E-9,206.1E-9
92.64E-9,116.4E-9
92.78E-9,39.36E-9
92.91E-9,36.16E-9
93.08E-9,-1.921E-9
93.30E-9,14.24E-9
93.58E-9,-11.09E-9
93.97E-9,11.50E-9
94.57E-9,-11.49E-9
95.64E-9,11.50E-9
97.78E-9,-11.49E-9
100.0E-9,11.50E-9
100.1E-9,-169.5E-9
100.2E-9,-34.02E-9
100.5E-9,34.90E-6
100.6E-9,94.17E-6
100.8E-9,153.4E-6
100.9E-9,195.5E-6
101.0E-9,236.1E-6
101.0E-9,235.8E-6
101.1E-9,233.9E-6
101.1E-9,231.6E-6
101.2E-9,222.9E-6
101.3E-9,175.2E-6
101.4E-9,122.3E-6
101.6E-9,69.29E-6
101.8E-9,22.77E-6
101.9E-9,9.410E-6
102.0E-9,3.672E-6
102.2E-9,1.330E-6
102.4E-9,247.7E-9
102.7E-9,23.97E-9
103.2E-9,-22.38E-9
103.9E-9,18.37E-9
105.3E-9,-17.98E-9
108.2E-9,17.88E-9
111.0E-9,-17.74E-9
111.1E-9,107.9E-9
111.2E-9,-280.2E-9
111.4E-9,2.811E-6
111.5E-9,9.545E-6
111.7E-9,6.135E-6
111.8E-9,1.303E-6
111.9E-9,1.401E-6
112.0E-9,1.419E-6
112.0E-9,1.258E-6
112.1E-9,1.141E-6
112.1E-9,1.058E-6
112.2E-9,823.4E-9
112.3E-9,562.9E-9
112.5E-9,206.1E-9
112.6E-9,116.4E-9
112.8E-9,39.36E-9
112.9E-9,36.16E-9
113.1E-9,-1.920E-9
113.3E-9,14.24E-9
113.6E-9,-11.09E-9
114.0E-9,11.49E-9
114.6E-9,-11.49E-9
115.6E-9,11.50E-9
117.8E-9,-11.49E-9
120.0E-9,11.50E-9
120.1E-9,-169.5E-9
120.2E-9,-33.92E-9
120.5E-9,34.90E-6
120.6E-9,94.18E-6
120.8E-9,153.4E-6
120.9E-9,195.5E-6
121.0E-9,236.1E-6
121.0E-9,235.8E-6
121.1E-9,233.9E-6
121.1E-9,231.6E-6
121.2E-9,222.9E-6
121.3E-9,175.2E-6
121.4E-9,122.3E-6
121.6E-9,69.29E-6
121.8E-9,22.77E-6
121.9E-9,9.412E-6
122.0E-9,3.673E-6
122.2E-9,1.331E-6
122.4E-9,247.8E-9
122.7E-9,24.00E-9
123.2E-9,-22.39E-9
123.9E-9,18.38E-9
125.3E-9,-17.99E-9
128.2E-9,17.89E-9
131.0E-9,-17.75E-9
131.1E-9,107.9E-9
131.2E-9,-280.2E-9
131.4E-9,2.811E-6
131.5E-9,9.545E-6
131.7E-9,6.135E-6
131.8E-9,1.303E-6
131.9E-9,1.401E-6
132.0E-9,1.419E-6
132.0E-9,1.258E-6
132.1E-9,1.141E-6
132.1E-9,1.058E-6
132.2E-9,823.4E-9
132.3E-9,562.9E-9
132.5E-9,206.1E-9
132.6E-9,116.4E-9
132.8E-9,39.36E-9
132.9E-9,36.16E-9
133.1E-9,-1.920E-9
133.3E-9,14.24E-9
133.6E-9,-11.09E-9
134.0E-9,11.50E-9
134.6E-9,-11.49E-9
135.6E-9,11.50E-9
137.8E-9,-11.49E-9
140.0E-9,11.50E-9
140.1E-9,-169.5E-9
140.2E-9,-33.95E-9
140.5E-9,34.90E-6
140.6E-9,94.18E-6
140.8E-9,153.4E-6
140.9E-9,195.5E-6
141.0E-9,236.1E-6
141.0E-9,235.8E-6
141.1E-9,233.9E-6
141.1E-9,231.6E-6
141.2E-9,222.9E-6
141.3E-9,175.2E-6
141.4E-9,122.3E-6
141.6E-9,69.29E-6
141.8E-9,22.77E-6
141.9E-9,9.411E-6
142.0E-9,3.673E-6
142.2E-9,1.331E-6
142.4E-9,247.8E-9
142.7E-9,23.99E-9
143.2E-9,-22.39E-9
143.9E-9,18.38E-9
145.3E-9,-17.99E-9
148.2E-9,17.88E-9
151.0E-9,-17.75E-9
151.1E-9,107.9E-9
151.2E-9,-280.2E-9
151.4E-9,2.811E-6
151.5E-9,9.545E-6
151.7E-9,6.135E-6
151.8E-9,1.303E-6
151.9E-9,1.401E-6
152.0E-9,1.419E-6
152.0E-9,1.258E-6
152.1E-9,1.141E-6
152.1E-9,1.058E-6
152.2E-9,823.4E-9
152.3E-9,562.9E-9
152.5E-9,206.1E-9
152.6E-9,116.4E-9
152.8E-9,39.36E-9
152.9E-9,36.16E-9
153.1E-9,-1.920E-9
153.3E-9,14.24E-9
153.6E-9,-11.09E-9
154.0E-9,11.49E-9
154.6E-9,-11.49E-9
155.6E-9,11.50E-9
157.8E-9,-11.49E-9
160.0E-9,11.50E-9
160.1E-9,-169.5E-9
160.2E-9,-33.94E-9
160.5E-9,34.90E-6
160.6E-9,94.18E-6
160.8E-9,153.4E-6
160.9E-9,195.5E-6
161.0E-9,236.1E-6
161.0E-9,235.8E-6
161.1E-9,233.9E-6
161.1E-9,231.6E-6
161.2E-9,222.9E-6
161.3E-9,175.2E-6
161.4E-9,122.3E-6
161.6E-9,69.29E-6
161.8E-9,22.77E-6
161.9E-9,9.411E-6
162.0E-9,3.673E-6
162.2E-9,1.331E-6
162.4E-9,247.8E-9
162.7E-9,23.99E-9
163.2E-9,-22.39E-9
163.9E-9,18.38E-9
165.3E-9,-17.99E-9
168.2E-9,17.89E-9
171.0E-9,-17.75E-9
171.1E-9,107.9E-9
171.2E-9,-280.2E-9
171.4E-9,2.811E-6
171.5E-9,9.545E-6
171.7E-9,6.135E-6
171.8E-9,1.303E-6
171.9E-9,1.401E-6
172.0E-9,1.419E-6
172.0E-9,1.258E-6
172.1E-9,1.141E-6
172.1E-9,1.058E-6
172.2E-9,823.4E-9
172.3E-9,562.9E-9
172.5E-9,206.1E-9
172.6E-9,116.4E-9
172.8E-9,39.36E-9
172.9E-9,36.16E-9
173.1E-9,-1.920E-9
173.3E-9,14.24E-9
173.6E-9,-11.09E-9
174.0E-9,11.49E-9
174.6E-9,-11.49E-9
175.6E-9,11.50E-9
177.8E-9,-11.49E-9
180.0E-9,11.50E-9
180.1E-9,-169.5E-9
180.2E-9,-33.95E-9
180.5E-9,34.90E-6
180.6E-9,94.18E-6
180.8E-9,153.4E-6
180.9E-9,195.5E-6
181.0E-9,236.1E-6
181.0E-9,235.8E-6
181.1E-9,233.9E-6
181.1E-9,231.6E-6
181.2E-9,222.9E-6
181.3E-9,175.2E-6
181.4E-9,122.3E-6
181.6E-9,69.29E-6
181.8E-9,22.77E-6
181.9E-9,9.411E-6
182.0E-9,3.673E-6
182.2E-9,1.331E-6
182.4E-9,247.8E-9
182.7E-9,23.99E-9
183.2E-9,-22.39E-9
183.9E-9,18.38E-9
185.3E-9,-17.99E-9
188.2E-9,17.89E-9
191.0E-9,-17.75E-9
191.1E-9,107.9E-9
191.2E-9,-280.2E-9
191.4E-9,2.811E-6
191.5E-9,9.545E-6
191.7E-9,6.135E-6
191.8E-9,1.303E-6
191.9E-9,1.401E-6
192.0E-9,1.419E-6
192.0E-9,1.258E-6
192.1E-9,1.141E-6
192.1E-9,1.058E-6
192.2E-9,823.4E-9
192.3E-9,562.9E-9
192.5E-9,206.1E-9
192.6E-9,116.4E-9
192.8E-9,39.36E-9
192.9E-9,36.16E-9
193.1E-9,-1.920E-9
193.3E-9,14.24E-9
193.6E-9,-11.09E-9
194.0E-9,11.49E-9
194.6E-9,-11.49E-9
195.6E-9,11.50E-9
197.8E-9,-11.49E-9
200.0E-9,11.50E-9
