time (s),/vout (V)
0.000,1.800
37.05E-12,1.800
65.57E-12,1.801
118.9E-12,1.801
225.4E-12,1.802
438.5E-12,1.793
666.2E-12,1.745
833.1E-12,1.669
1.000E-9,1.555
1.027E-9,1.534
1.080E-9,1.491
1.129E-9,1.452
1.226E-9,1.375
1.421E-9,1.220
1.810E-9,915.4E-3
2.188E-9,632.7E-3
2.552E-9,397.3E-3
2.929E-9,219.7E-3
3.295E-9,113.0E-3
3.662E-9,54.81E-3
4.086E-9,22.38E-3
4.491E-9,9.364E-3
4.957E-9,3.319E-3
5.521E-9,883.2E-6
6.290E-9,102.6E-6
7.385E-9,-6.136E-6
9.127E-9,-1.136E-6
11.00E-9,353.3E-9
11.08E-9,-330.0E-6
11.20E-9,-808.9E-6
11.41E-9,5.318E-3
11.68E-9,69.84E-3
11.87E-9,190.1E-3
12.00E-9,312.3E-3
12.02E-9,337.9E-3
12.07E-9,389.0E-3
12.11E-9,433.8E-3
12.20E-9,522.3E-3
12.37E-9,695.5E-3
12.70E-9,1.018
13.08E-9,1.317
13.42E-9,1.509
13.81E-9,1.646
14.18E-9,1.720
14.57E-9,1.760
14.96E-9,1.780
15.41E-9,1.791
15.95E-9,1.797
16.64E-9,1.799
17.57E-9,1.800
18.89E-9,1.800
20.00E-9,1.800
20.07E-9,1.801
20.17E-9,1.801
20.32E-9,1.801
20.52E-9,1.784
20.73E-9,1.720
20.87E-9,1.650
21.00E-9,1.556
21.02E-9,1.537
21.07E-9,1.499
21.11E-9,1.465
21.20E-9,1.397
21.37E-9,1.261
21.71E-9,993.2E-3
22.17E-9,647.8E-3
22.55E-9,399.2E-3
22.95E-9,213.9E-3
23.31E-9,110.0E-3
23.68E-9,53.11E-3
24.10E-9,21.67E-3
24.51E-9,9.034E-3
24.98E-9,3.176E-3
25.55E-9,830.2E-6
26.33E-9,91.38E-6
27.44E-9,-6.166E-6
29.22E-9,-908.3E-9
31.00E-9,272.5E-9
31.08E-9,-323.2E-6
31.20E-9,-795.6E-6
31.40E-9,4.304E-3
31.67E-9,68.61E-3
31.87E-9,187.1E-3
32.00E-9,312.5E-3
32.02E-9,338.4E-3
32.07E-9,390.1E-3
32.12E-9,435.6E-3
32.20E-9,525.6E-3
32.37E-9,701.5E-3
32.71E-9,1.028
33.09E-9,1.323
33.43E-9,1.514
33.82E-9,1.649
34.35E-9,1.742
34.74E-9,1.771
35.15E-9,1.787
35.61E-9,1.794
36.21E-9,1.798
36.99E-9,1.800
38.08E-9,1.800
39.04E-9,1.800
40.00E-9,1.800
40.06E-9,1.800
40.16E-9,1.801
40.30E-9,1.801
40.58E-9,1.769
40.79E-9,1.694
41.00E-9,1.554
41.04E-9,1.522
41.11E-9,1.469
41.16E-9,1.423
41.28E-9,1.330
41.51E-9,1.146
41.98E-9,786.6E-3
42.36E-9,516.0E-3
42.81E-9,267.7E-3
43.17E-9,143.2E-3
43.64E-9,56.76E-3
44.11E-9,20.55E-3
44.53E-9,8.396E-3
44.98E-9,3.072E-3
45.54E-9,820.4E-6
46.33E-9,86.11E-6
47.46E-9,-6.657E-6
49.27E-9,-779.2E-9
51.00E-9,229.0E-9
51.08E-9,-319.4E-6
51.20E-9,-788.2E-6
51.40E-9,3.790E-3
51.67E-9,68.16E-3
51.86E-9,185.8E-3
52.00E-9,312.6E-3
52.02E-9,338.7E-3
52.07E-9,390.6E-3
52.12E-9,436.5E-3
52.20E-9,527.1E-3
52.37E-9,704.3E-3
52.72E-9,1.033
53.09E-9,1.326
53.44E-9,1.516
53.82E-9,1.650
54.35E-9,1.742
54.73E-9,1.771
55.15E-9,1.786
55.60E-9,1.794
56.21E-9,1.798
56.99E-9,1.800
58.07E-9,1.800
59.03E-9,1.800
60.00E-9,1.800
60.06E-9,1.800
60.16E-9,1.801
60.30E-9,1.801
60.58E-9,1.769
60.79E-9,1.693
61.00E-9,1.554
61.04E-9,1.522
61.11E-9,1.469
61.16E-9,1.423
61.28E-9,1.331
61.51E-9,1.148
61.97E-9,788.9E-3
62.35E-9,518.2E-3
62.81E-9,268.7E-3
63.17E-9,143.8E-3
63.63E-9,57.26E-3
64.11E-9,20.64E-3
64.52E-9,8.439E-3
64.98E-9,3.089E-3
65.54E-9,828.4E-6
66.32E-9,87.60E-6
67.46E-9,-6.669E-6
69.25E-9,-814.6E-9
71.00E-9,240.6E-9
71.08E-9,-320.4E-6
71.20E-9,-790.1E-6
71.40E-9,3.919E-3
71.67E-9,68.26E-3
71.87E-9,186.1E-3
72.00E-9,312.6E-3
72.02E-9,338.6E-3
72.07E-9,390.5E-3
72.12E-9,436.2E-3
72.20E-9,526.8E-3
72.37E-9,703.6E-3
72.72E-9,1.032
73.09E-9,1.325
73.43E-9,1.515
73.82E-9,1.650
74.35E-9,1.742
74.73E-9,1.771
75.15E-9,1.787
75.60E-9,1.794
76.21E-9,1.798
76.99E-9,1.800
78.07E-9,1.800
79.03E-9,1.800
80.00E-9,1.800
80.06E-9,1.800
80.16E-9,1.801
80.30E-9,1.801
80.58E-9,1.769
80.79E-9,1.693
81.00E-9,1.554
81.04E-9,1.522
81.11E-9,1.469
81.16E-9,1.423
81.28E-9,1.331
81.51E-9,1.147
81.97E-9,788.4E-3
82.36E-9,517.7E-3
82.81E-9,268.5E-3
83.17E-9,143.6E-3
83.63E-9,57.15E-3
84.11E-9,20.62E-3
84.52E-9,8.430E-3
84.98E-9,3.085E-3
85.54E-9,826.7E-6
86.32E-9,87.28E-6
87.46E-9,-6.666E-6
89.26E-9,-806.8E-9
91.00E-9,238.0E-9
91.08E-9,-320.2E-6
91.20E-9,-789.7E-6
91.40E-9,3.891E-3
91.67E-9,68.23E-3
91.87E-9,186.1E-3
92.00E-9,312.6E-3
92.02E-9,338.6E-3
92.07E-9,390.5E-3
92.12E-9,436.3E-3
92.20E-9,526.8E-3
92.37E-9,703.8E-3
92.72E-9,1.032
93.09E-9,1.325
93.43E-9,1.515
93.82E-9,1.650
94.35E-9,1.742
94.73E-9,1.771
95.15E-9,1.787
95.60E-9,1.794
96.21E-9,1.798
96.99E-9,1.800
98.07E-9,1.800
99.03E-9,1.800
100.0E-9,1.800
100.1E-9,1.800
100.2E-9,1.801
100.3E-9,1.801
100.6E-9,1.769
100.8E-9,1.693
101.0E-9,1.554
101.0E-9,1.522
101.1E-9,1.469
101.2E-9,1.423
101.3E-9,1.331
101.5E-9,1.147
102.0E-9,788.5E-3
102.4E-9,517.8E-3
102.8E-9,268.5E-3
103.2E-9,143.6E-3
103.6E-9,57.17E-3
104.1E-9,20.62E-3
104.5E-9,8.432E-3
105.0E-9,3.086E-3
105.5E-9,827.1E-6
106.3E-9,87.35E-6
107.5E-9,-6.667E-6
109.3E-9,-808.6E-9
111.0E-9,238.6E-9
111.1E-9,-320.2E-6
111.2E-9,-789.8E-6
111.4E-9,3.898E-3
111.7E-9,68.24E-3
111.9E-9,186.1E-3
112.0E-9,312.6E-3
112.0E-9,338.6E-3
112.1E-9,390.5E-3
112.1E-9,436.3E-3
112.2E-9,526.8E-3
112.4E-9,703.7E-3
112.7E-9,1.032
113.1E-9,1.325
113.4E-9,1.515
113.8E-9,1.650
114.4E-9,1.742
114.7E-9,1.771
115.2E-9,1.787
115.6E-9,1.794
116.2E-9,1.798
117.0E-9,1.800
118.1E-9,1.800
119.0E-9,1.800
120.0E-9,1.800
120.1E-9,1.800
120.2E-9,1.801
120.3E-9,1.801
120.6E-9,1.769
120.8E-9,1.693
121.0E-9,1.554
121.0E-9,1.522
121.1E-9,1.469
121.2E-9,1.423
121.3E-9,1.331
121.5E-9,1.147
122.0E-9,788.5E-3
122.4E-9,517.8E-3
122.8E-9,268.5E-3
123.2E-9,143.6E-3
123.6E-9,57.17E-3
124.1E-9,20.62E-3
124.5E-9,8.432E-3
125.0E-9,3.086E-3
125.5E-9,827.0E-6
126.3E-9,87.33E-6
127.5E-9,-6.667E-6
129.3E-9,-808.2E-9
131.0E-9,238.5E-9
131.1E-9,-320.2E-6
131.2E-9,-789.7E-6
131.4E-9,3.896E-3
131.7E-9,68.24E-3
131.9E-9,186.1E-3
132.0E-9,312.6E-3
132.0E-9,338.6E-3
132.1E-9,390.5E-3
132.1E-9,436.3E-3
132.2E-9,526.8E-3
132.4E-9,703.7E-3
132.7E-9,1.032
133.1E-9,1.325
133.4E-9,1.515
133.8E-9,1.650
134.4E-9,1.742
134.7E-9,1.771
135.2E-9,1.787
135.6E-9,1.794
136.2E-9,1.798
137.0E-9,1.800
138.1E-9,1.800
139.0E-9,1.800
140.0E-9,1.800
140.1E-9,1.800
140.2E-9,1.801
140.3E-9,1.801
140.6E-9,1.769
140.8E-9,1.693
141.0E-9,1.554
141.0E-9,1.522
141.1E-9,1.469
141.2E-9,1.423
141.3E-9,1.331
141.5E-9,1.147
142.0E-9,788.5E-3
142.4E-9,517.8E-3
142.8E-9,268.5E-3
143.2E-9,143.6E-3
143.6E-9,57.17E-3
144.1E-9,20.62E-3
144.5E-9,8.432E-3
145.0E-9,3.086E-3
145.5E-9,827.0E-6
146.3E-9,87.34E-6
147.5E-9,-6.667E-6
149.3E-9,-808.3E-9
151.0E-9,238.5E-9
151.1E-9,-320.2E-6
151.2E-9,-789.8E-6
151.4E-9,3.897E-3
151.7E-9,68.24E-3
151.9E-9,186.1E-3
152.0E-9,312.6E-3
152.0E-9,338.6E-3
152.1E-9,390.5E-3
152.1E-9,436.3E-3
152.2E-9,526.8E-3
152.4E-9,703.7E-3
152.7E-9,1.032
153.1E-9,1.325
153.4E-9,1.515
153.8E-9,1.650
154.4E-9,1.742
154.7E-9,1.771
155.2E-9,1.787
155.6E-9,1.794
156.2E-9,1.798
157.0E-9,1.800
158.1E-9,1.800
159.0E-9,1.800
160.0E-9,1.800
160.1E-9,1.800
160.2E-9,1.801
160.3E-9,1.801
160.6E-9,1.769
160.8E-9,1.693
161.0E-9,1.554
161.0E-9,1.522
161.1E-9,1.469
161.2E-9,1.423
161.3E-9,1.331
161.5E-9,1.147
162.0E-9,788.5E-3
162.4E-9,517.8E-3
162.8E-9,268.5E-3
163.2E-9,143.6E-3
163.6E-9,57.17E-3
164.1E-9,20.62E-3
164.5E-9,8.432E-3
165.0E-9,3.086E-3
165.5E-9,827.0E-6
166.3E-9,87.34E-6
167.5E-9,-6.667E-6
169.3E-9,-808.2E-9
171.0E-9,238.5E-9
171.1E-9,-320.2E-6
171.2E-9,-789.8E-6
171.4E-9,3.897E-3
171.7E-9,68.24E-3
171.9E-9,186.1E-3
172.0E-9,312.6E-3
172.0E-9,338.6E-3
172.1E-9,390.5E-3
172.1E-9,436.3E-3
172.2E-9,526.8E-3
172.4E-9,703.7E-3
172.7E-9,1.032
173.1E-9,1.325
173.4E-9,1.515
173.8E-9,1.650
174.4E-9,1.742
174.7E-9,1.771
175.2E-9,1.787
175.6E-9,1.794
176.2E-9,1.798
177.0E-9,1.800
178.1E-9,1.800
179.0E-9,1.800
180.0E-9,1.800
180.1E-9,1.800
180.2E-9,1.801
180.3E-9,1.801
180.6E-9,1.769
180.8E-9,1.693
181.0E-9,1.554
181.0E-9,1.522
181.1E-9,1.469
181.2E-9,1.423
181.3E-9,1.331
181.5E-9,1.147
182.0E-9,788.5E-3
182.4E-9,517.8E-3
182.8E-9,268.5E-3
183.2E-9,143.6E-3
183.6E-9,57.17E-3
184.1E-9,20.62E-3
184.5E-9,8.432E-3
185.0E-9,3.086E-3
185.5E-9,827.0E-6
186.3E-9,87.34E-6
187.5E-9,-6.667E-6
189.3E-9,-808.3E-9
191.0E-9,238.5E-9
191.1E-9,-320.2E-6
191.2E-9,-789.8E-6
191.4E-9,3.897E-3
191.7E-9,68.24E-3
191.9E-9,186.1E-3
192.0E-9,312.6E-3
192.0E-9,338.6E-3
192.1E-9,390.5E-3
192.1E-9,436.3E-3
192.2E-9,526.8E-3
192.4E-9,703.7E-3
192.7E-9,1.032
193.1E-9,1.325
193.4E-9,1.515
193.8E-9,1.650
194.4E-9,1.742
194.7E-9,1.771
195.2E-9,1.787
195.6E-9,1.794
196.2E-9,1.798
197.0E-9,1.800
198.1E-9,1.800
199.0E-9,1.800
200.0E-9,1.800
